        Energy   CumulativeEnergy
      1.5873675      1.5873675
      1.6226313      3.2452626
      1.6321434      4.8964302
      1.6488007      6.5952030
      1.6587952      8.2939758
      1.7213372      10.328023
      1.7660102      12.362071
      1.7995149      14.396119
      1.8170400      16.353360
      1.8310602      18.310602
      1.8425157      20.267672
      1.8520619      22.224743
      1.8965577      24.655250
      1.9639390      27.495146
      2.0101163      30.151745
      2.0505215      32.808344
      2.1044148      35.775051
      2.1458999      38.626197
      2.1816251      41.450876
      2.2137778      44.275555
      2.2470414      47.187869
      2.2772810      50.100183
      2.3048912      53.012497
      2.3302005      55.924811
      2.3650822      59.127056
      2.3975893      62.337321
      2.4244338      65.459713
      2.4473306      68.525258
      2.4589604      71.309851
      2.4698148      74.094444
      2.5079340      77.745953
      2.5436707      81.397461
      2.5772415      85.048970
      2.6137402      88.867168
      2.6547438      92.916034
      2.6934694      96.964899
      2.7179392      100.56375
      2.7411212      104.16260
      2.7907005      108.83732
      2.8457679      113.83072
      2.8922918      118.58396
      2.9244030      122.82493
      2.9491904      126.81519
      2.9689417      130.63344
      2.9878152      134.45169
      3.0161031      138.74074
      3.0502185      143.36027
      3.0829124      147.97980
      3.1142719      152.59932
      3.1443770      157.21885
      3.1732051      161.83346
      3.1989451      166.34515
      3.2130455      170.29141
      3.2481099      175.39794
      3.2785496      180.32023
      3.3117327      185.45703
      3.3437514      190.59383
      3.3633942      195.07686
      3.3789746      199.35950
      3.3940356      203.64214
      3.4086029      207.92477
      3.4205037      212.07123
      3.4320266      216.21768
      3.4373321      219.98925
      3.4424743      223.76083
      3.4474607      227.53240
      3.4522982      231.30398
      3.4661171      235.69596
      3.4753448      239.79879
      3.4812455      243.68718
      3.4869799      247.57557
      3.4925551      251.46396
      3.4979552      255.35073
      3.5006620      259.04899
      3.4986679      262.40009
      3.4967263      265.75120
      3.4953068      269.13862
      3.4939237      272.52605
      3.4925756      275.91347
      3.4910006      279.28005
      3.4894645      282.64663
      3.4935402      286.47030
      3.4952969      290.10964
      3.4944701      293.53548
      3.5019235      297.66350
      3.5164617      302.41570
      3.5262618      306.78478
      3.5358393      311.15385
      3.5559831      316.48249
      3.5756792      321.81113
      3.5911899      326.79828
      3.6063634      331.78544
      3.6272457      337.33385
      3.6515493      343.24563
      3.6687308      348.52943
      3.6791369      353.19715
      3.6893285      357.86487
      3.6933899      361.95221
      3.6963817      365.94179
      3.6993137      369.93137
      3.7021877      373.92096
      3.7017011      377.57352
      3.7012240      381.22608
      3.7007561      384.87864
      3.7069583      389.23062
      3.7146271      393.75048
      3.7177189      397.79592
      3.7178983      401.53302
      3.7180745      405.27012
      3.7170069      408.87076
      3.7146475      412.32588
      3.7154445      416.12979
      3.7173981      420.06598
      3.7256639      424.72569
      3.7337861      429.38540
      3.7417319      434.04090
      3.7482098      438.54055
      3.7545779      443.04020
      3.7608390      447.53984
      3.7622790      451.47348
      3.7611381      455.09771
      3.7611041      458.85470
      3.7610707      462.61169
      3.7653828      466.90747
      3.7705428      471.31786
      3.7797488      476.24835
      3.7881518      481.09528
      3.7934941      485.56725
      3.7987536      490.03921
      3.8039322      494.51118
      3.8050746      498.46477
      3.8068111      502.49907
      3.8073339      506.37541
      3.8077689      510.24103
      3.8081974      514.10665
      3.8086196      517.97226
      3.8063796      521.47401
      3.8045562      525.02875
      3.8027590      528.58350
      3.7994829      531.92761
      3.7978667      535.49920
      3.7940679      538.75764
      3.7953755      542.73870
      3.7940970      546.34997
      3.7928361      549.96124
      3.7903077      553.38493
      3.7890488      556.99018
      3.7937250      561.47129
      3.7957667      565.56923
      3.7957503      569.36255
      3.7938272      572.86790
      3.7902073      576.11150
      3.7862941      579.30300
      3.7824318      582.49449
      3.7799393      585.89059
      3.7809764      589.83231
      3.7820002      593.77403
      3.7830111      597.71575
      3.7883374      602.34564
      3.7935971      606.97554
      3.8003292      611.85300
      3.8059238      616.55966
      3.8126801      621.46686
      3.8193541      626.37407
      3.8248126      631.09407
      3.8302053      635.81408
      3.8355335      640.53409
      3.8386726      644.89699
      3.8488830      650.46123
      3.8578557      655.83548
      3.8647330      660.86934
      3.8714778      665.89418
      3.8825011      671.67268
      3.8951289      677.75243
      3.9067011      683.67269
      3.9197533      689.87659
      3.9379556      697.01814
      3.9521337      703.47981
      3.9665173      710.00659
      3.9813889      716.65000
      3.9930361      722.73954
      4.0045554      728.82909
      4.0200756      735.67383
      4.0354270      742.51858
      4.0506125      749.36332
      4.0620908      755.54889
      4.0696204      761.01902
      4.0781767      766.69722
      4.0898082      772.97375
      4.1013173      779.25028
      4.1165371      786.25859
      4.1315984      793.26689
      4.1411314      799.23836
      4.1493002      804.96424
      4.1573852      810.69011
      4.1664697      816.62807
      4.1725250      821.98742
      4.1780608      827.25604
      4.1805546      831.93037
      4.1830235      836.60470
      4.1895914      842.10786
      4.1923821      846.86118
      4.1948774      851.56012
      4.2003411      856.86959
      4.2057515      862.17905
      4.2087128      866.99484
      4.2116455      871.81062
      4.2142778      876.56978
      4.2176602      881.49098
      4.2239812      887.03606
      4.2304328      892.62131
      4.2345916      897.73341
      4.2437575      903.92034
      4.2528377      910.10727
      4.2584858      915.57446
      4.2663134      921.52368
      4.2745684      927.58134
      4.2846967      934.06388
      4.2941489      940.41862
      4.3035152      946.77335
      4.3136785      953.32295
      4.3218286      959.44595
      4.3272395      964.97441
      4.3317727      970.31709
      4.3358436      975.56481
      4.3398785      980.81253
      4.3484215      987.09168
      4.3567643      993.34227
      4.3659373      999.79965
      4.3764778      1006.5899
      4.3831193      1012.5006
      4.3875745      1017.9173
      4.3922009      1023.3828
      4.3947276      1028.3663
      4.3975754      1033.4302
      4.3991796      1038.2064
      4.4019375      1043.2592
      4.4019016      1047.6526
      4.4039047      1052.5332
      4.4058911      1057.4139
      4.4078610      1062.2945
      4.4127593      1067.8878
      4.4176173      1073.4810
      4.4222635      1079.0323
      4.4290140      1085.1084
      4.4374900      1091.6226
      4.4428409      1097.3817
      4.4481486      1103.1409
      4.4579127      1110.0203
      4.4675987      1116.8997
      4.4750721      1123.2431
      4.4826182      1129.6198
      4.4901046      1135.9965
      4.4977247      1142.4221
      4.5079017      1149.5149
      4.5179992      1156.6078
      4.5280182      1163.7007
      4.5386129      1170.9621
      4.5500476      1178.4623
      4.5599653      1185.5910
      4.5702998      1192.8483
      4.5782547      1199.5027
      4.5889695      1206.8990
      4.5980728      1213.8912
      4.6071074      1220.8835
      4.6140762      1227.3443
      4.6209928      1233.8051
      4.6284091      1240.4136
      4.6328074      1246.2252
      4.6371732      1252.0368
      4.6404625      1257.5653
      4.6478006      1264.2018
      4.6533032      1270.3518
      4.6564767      1275.8746
      4.6576267      1280.8473
      4.6589562      1285.8719
      4.6588494      1290.5013
      4.6595890      1295.3657
      4.6591487      1299.9025
      4.6587115      1304.4392
      4.6576024      1308.7863
      4.6589339      1313.8194
      4.6581123      1318.2458
      4.6572965      1322.6722
      4.6606810      1328.2941
      4.6640418      1333.9160
      4.6656253      1339.0345
      4.6709448      1345.2321
      4.6758858      1351.3310
      4.6778725      1356.5830
      4.6798455      1361.8350
      4.6808172      1366.7986
      4.6827558      1372.0474
      4.6846812      1377.2963
      4.6855862      1382.2479
      4.6862773      1387.1381
      4.6850878      1391.4711
      4.6821560      1395.2825
      4.6799863      1399.3159
      4.6772674      1403.1802
      4.6754138      1407.2996
      4.6735726      1411.4189
      4.6731286      1415.9580
      4.6712064      1420.0468
      4.6678915      1423.7069
      4.6658378      1427.7464
      4.6629136      1431.5145
      4.6589708      1434.9630
      4.6550536      1438.4115
      4.6511616      1441.8601
      4.6462331      1444.9785
      4.6413362      1448.0969
      4.6364706      1451.2153
      4.6318818      1454.4109
      4.6265893      1457.3756
      4.6213303      1460.3404
      4.6166714      1463.4848
      4.6120419      1466.6293
      4.6084210      1470.0863
      4.6072509      1474.3203
      4.6060880      1478.5542
      4.6055678      1482.9928
      4.6048333      1487.3611
      4.6050890      1492.0488
      4.6053431      1496.7365
      4.6063012      1501.6542
      4.6076857      1506.7132
      4.6090618      1511.7723
      4.6104295      1516.8313
      4.6139954      1522.6185
      4.6173639      1528.3475
      4.6207121      1534.0764
      4.6233714      1539.5827
      4.6260147      1545.0889
      4.6286531      1550.5988
      4.6349536      1557.3444
      4.6412168      1564.0901
      4.6474429      1570.8357
      4.6525820      1577.2253
      4.6576908      1583.6149
      4.6627697      1590.0045
      4.6676739      1596.3445
      4.6742855      1603.2799
      4.6791641      1609.6325
      4.6834495      1615.7901
      4.6852375      1621.0922
      4.6891663      1627.1407
      4.6931346      1633.2108
      4.6968197      1639.1901
      4.7004839      1645.1693
      4.7041444      1651.1547
      4.7068246      1656.8023
      4.7086395      1662.1498
      4.7110461      1667.7103
      4.7152747      1673.9225
      4.7194795      1680.1347
      4.7236607      1686.3469
      4.7278186      1692.5591
      4.7299272      1698.0439
      4.7317040      1703.4134
      4.7334709      1708.7830
      4.7338048      1713.6374
      4.7366484      1719.4034
      4.7394403      1725.1563
      4.7408881      1730.4241
      4.7421569      1735.6294
      4.7428343      1740.6202
      4.7435081      1745.6110
      4.7440963      1750.5715
      4.7462222      1756.1022
      4.7476621      1761.3826
      4.7490942      1766.6630
      4.7490451      1771.3938
      4.7489963      1776.1246
      4.7489478      1780.8554
      4.7488995      1785.5862
      4.7476038      1789.8466
      4.7457482      1793.8928
      4.7439024      1797.9390
      4.7431346      1802.3911
      4.7428218      1807.0151
      4.7425106      1811.6390
      4.7411394      1815.8564
      4.7394111      1819.9339
      4.7368104      1823.6720
      4.7342231      1827.4101
      4.7316491      1831.1482
      4.7290885      1834.8863
      4.7265410      1838.6244
      4.7237675      1842.2693
      4.7210082      1845.9142
      4.7177434      1849.3554
      4.7138532      1852.5443
      4.7100392      1855.7554
      4.7063459      1859.0066
      4.7045047      1862.9839
      4.7026727      1866.9611
      4.7013740      1871.1468
      4.7003142      1875.4254
      4.6982155      1879.2862
      4.6969529      1883.4781
      4.6948235      1887.3191
      4.6954631      1892.2716
      4.6960994      1897.2242
      4.6991813      1903.1684
      4.7006433      1908.4612
      4.7019720      1913.7026
      4.7032942      1918.9440
      4.7038939      1923.8926
      4.7034030      1928.3952
      4.7025268      1932.7385
      4.7026550      1937.4938
      4.7017342      1941.8162
      4.7008178      1946.1386
      4.7018967      1951.2871
      4.7027945      1956.3625
      4.7042904      1961.6891
      4.7072301      1967.6222
      4.7113209      1974.0435
      4.7153030      1980.4273
      4.7192662      1986.8111
      4.7217724      1992.5879
      4.7255851      1998.9225
      4.7307359      2005.8320
      4.7379609      2013.6334
      4.7451520      2021.4348
      4.7527262      2029.4141
      4.7602649      2037.3934
      4.7677685      2045.3727
      4.7754951      2053.4629
      4.7812824      2060.7327
      4.7890465      2068.8681
      4.7970159      2077.1079
      4.8041758      2085.0123
      4.8088696      2091.8583
      4.8138590      2098.8425
      4.8206412      2106.6202
      4.8273925      2114.3979
      4.8358418      2122.9345
      4.8442526      2131.4712
      4.8498936      2138.8031
      4.8545770      2145.7230
      4.8592391      2152.6429
      4.8633025      2159.3063
      4.8673476      2165.9697
      4.8716460      2172.7541
      4.8763334      2179.7210
      4.8804486      2186.4410
      4.8845453      2193.1609
      4.8871997      2199.2398
      4.8926048      2206.5648
      4.8982254      2213.9979
      4.9015003      2220.3796
      4.9057333      2227.2029
      4.9099476      2234.0262
      4.9155483      2241.4900
      4.9208375      2248.8227
      4.9237340      2255.0702
      4.9266178      2261.3176
      4.9285460      2267.1312
      4.9299094      2272.6882
      4.9312669      2278.2453
      4.9326185      2283.8024
      4.9361535      2290.3752
      4.9396732      2296.9481
      4.9432669      2303.5624
      4.9456769      2309.6311
      4.9505442      2316.8547
      4.9553908      2324.0783
      4.9583462      2330.4227
      4.9607267      2336.5023
      4.9630972      2342.5819
      4.9681413      2349.9309
      4.9741832      2357.7628
      4.9801995      2365.5948
      4.9852390      2372.9738
      4.9902573      2380.3527
      4.9952546      2387.7317
      4.9988956      2394.4710
      5.0024839      2401.1923
      5.0052771      2407.5383
      5.0065470      2413.1557
      5.0079826      2418.8556
      5.0083875      2424.0596
      5.0087907      2429.2635
      5.0086414      2434.1997
      5.0088642      2439.3169
      5.0085448      2444.1699
      5.0080710      2448.9467
      5.0070417      2453.4504
      5.0072608      2458.5650
      5.0074790      2463.6797
      5.0073676      2468.6322
      5.0072567      2473.5848
      5.0071462      2478.5374
      5.0070362      2483.4900
      5.0064380      2488.1997
      5.0058422      2492.9094
      5.0057432      2497.8659
      5.0056569      2502.8284
      5.0055708      2507.7910
      5.0047908      2512.4050
      5.0040139      2517.0190
      5.0041781      2522.1058
      5.0040850      2527.0629
      5.0030115      2531.5238
      5.0009964      2535.5052
      4.9989892      2539.4865
      4.9969899      2543.4679
      4.9947391      2547.3169
      4.9925183      2551.1769
      4.9902631      2555.0147
      4.9890263      2559.3705
      4.9877944      2563.7263
      4.9865672      2568.0821
      4.9853448      2572.4379
      4.9842698      2576.8675
      4.9831988      2581.2970
      4.9821320      2585.7265
      4.9824804      2590.8898
      4.9828275      2596.0531
      4.9826533      2600.9450
      4.9815216      2605.3358
      4.9803942      2609.7265
      4.9792710      2614.1173
      4.9781522      2618.5080
      4.9767836      2622.7650
      4.9754202      2627.0219
      4.9740620      2631.2788
      4.9730930      2635.7393
      4.9721276      2640.1998
      4.9713058      2644.7347
      4.9704871      2649.2696
      4.9696715      2653.8046
      4.9686931      2658.2508
      4.9677183      2662.6970
      4.9665217      2667.0221
      4.9665203      2671.9879
      4.9665190      2676.9537
      4.9665177      2681.9195
      4.9668320      2687.0561
      4.9661646      2691.6612
      4.9654998      2696.2664
      4.9648374      2700.8715
      4.9641774      2705.4767
      4.9654110      2711.1144
      4.9659975      2716.4007
      4.9671373      2721.9913
      4.9682442      2727.5661
      4.9687023      2732.7862
      4.9691587      2738.0064
      4.9696135      2743.2266
      4.9715774      2749.2823
      4.9747629      2756.0187
      4.9763543      2761.8766
      4.9779399      2767.7346
      4.9801045      2773.9182
      4.9813770      2779.6084
      4.9818640      2784.8620
      4.9819623      2789.8989
      4.9820602      2794.9358
      4.9824375      2800.1299
      4.9828134      2805.3240
      4.9835502      2810.7223
      4.9843049      2816.1323
      4.9842440      2821.0821
      4.9841833      2826.0319
      4.9836893      2830.7355
      4.9848267      2836.3664
      4.9859601      2841.9973
      4.9887641      2848.5843
      4.9915584      2855.1714
      4.9934268      2861.2335
      4.9949901      2867.1243
      4.9977925      2873.7307
      5.0005852      2880.3371
      5.0019291      2886.1131
      5.0033546      2891.9389
      5.0045221      2897.6183
      5.0043564      2902.5267
      5.0041913      2907.4351
      5.0029427      2911.7127
      5.0010826      2915.6312
      4.9992289      2919.5497
      4.9973815      2923.4682
      4.9961536      2927.7460
      4.9950136      2932.0730
      4.9933769      2936.1056
      4.9914008      2939.9351
      4.9894314      2943.7645
      4.9874687      2947.5940
      4.9855126      2951.4234
      4.9830753      2954.9637
      4.9808198      2958.6070
      4.9783268      2962.1045
      4.9758422      2965.6019
      4.9745635      2969.8144
      4.9729186      2973.8053
      4.9707153      2977.4585
      4.9685194      2981.1116
      4.9667106      2984.9930
      4.9643145      2988.5173
      4.9619264      2992.0416
      4.9613623      2996.6628
      4.9608000      3001.2840
      4.9602229      3005.8951
      4.9604248      3010.9779
      4.9601910      3015.7961
      4.9596053      3020.3996
      4.9596032      3025.3580
      4.9587988      3029.8260
      4.9580789      3034.3443
      4.9581743      3039.3608
      4.9582693      3044.3774
      4.9583641      3049.3939
      4.9576491      3053.9118
      4.9560561      3057.8866
      4.9544682      3061.8614
      4.9528475      3065.8126
      4.9512320      3069.7638
      4.9512323      3074.7152
      4.9512326      3079.6666
      4.9515919      3084.8418
      4.9519502      3090.0169
      4.9540901      3096.3063
      4.9562231      3102.5957
      4.9583494      3108.8851
      4.9603793      3115.1182
      4.9626830      3121.5276
      4.9641549      3127.4176
      4.9656221      3133.3075
      4.9665202      3138.8407
      4.9685066      3145.0647
      4.9706755      3151.4083
      4.9716675      3157.0088
      4.9718567      3162.1009
      4.9727500      3167.6417
      4.9735072      3173.0976
      4.9742487      3178.5449
      4.9749879      3183.9923
      4.9749153      3188.9207
      4.9742826      3193.4894
      4.9736519      3198.0582
      4.9732906      3202.7992
